4/18/2025 5:19:05 AM  Counts:50000
1419.600000000  0.089883319
1419.605468750  0.089493871
1419.610937500  0.090125998
1419.616406250  0.090298671
1419.621875000  0.090860770
1419.627343750  0.091429636
1419.632812500  0.091427554
1419.638281250  0.092288573
1419.643750000  0.093456025
1419.649218750  0.093992829
1419.654687500  0.095205837
1419.660156250  0.096195577
1419.665625000  0.097637079
1419.671093750  0.098241780
1419.676562500  0.099966915
1419.682031250  0.101227469
1419.687500000  0.102879187
1419.692968750  0.103775681
1419.698437500  0.105292166
1419.703906250  0.107360029
1419.709375000  0.108577786
1419.714843750  0.110225225
1419.720312500  0.111847579
1419.725781250  0.113977839
1419.731250000  0.115472821
1419.736718750  0.117173424
1419.742187500  0.119099085
1419.747656250  0.120731225
1419.753125000  0.122936920
1419.758593750  0.124482004
1419.764062500  0.126663411
1419.769531250  0.128308973
1419.775000000  0.130749344
1419.780468750  0.132199362
1419.785937500  0.134766370
1419.791406250  0.136520187
1419.796875000  0.138220625
1419.802343750  0.140468466
1419.807812500  0.142661753
1419.813281250  0.144511264
1419.818750000  0.146239975
1419.824218750  0.147754481
1419.829687500  0.150043124
1419.835156250  0.151843173
1419.840625000  0.153072443
1419.846093750  0.155319479
1419.851562500  0.158146363
1419.857031250  0.159566127
1419.862500000  0.161839349
1419.867968750  0.162926391
1419.873437500  0.165318276
1419.878906250  0.167668308
1419.884375000  0.175748420
1419.889843750  0.179788269
1419.895312500  0.173764107
1419.900781250  0.174985854
1419.906250000  0.175474251
1419.911718750  0.177545828
1419.917187500  0.179721705
1419.922656250  0.180571714
1419.928125000  0.182658464
1419.933593750  0.183784955
1419.939062500  0.185469096
1419.944531250  0.186255915
1419.950000000  0.188759509
1419.955468750  0.189411202
1419.960937500  0.191611233
1419.966406250  0.193208511
1419.971875000  0.194252251
1419.977343750  0.196095332
1419.982812500  0.195793922
1419.988281250  0.197923429
1419.993750000  0.199046013
1419.999218750  0.200107570
1420.004687500  0.201993869
1420.010156250  0.202300411
1420.015625000  0.204807474
1420.021093750  0.206298732
1420.026562500  0.207606536
1420.032031250  0.206558488
1420.037500000  0.208835682
1420.042968750  0.209109401
1420.048437500  0.210677382
1420.053906250  0.211441596
1420.059375000  0.213393782
1420.064843750  0.213413284
1420.070312500  0.214169656
1420.075781250  0.214469058
1420.081250000  0.215599723
1420.086718750  0.215910780
1420.092187500  0.216818252
1420.097656250  0.217646968
1420.103125000  0.218725350
1420.108593750  0.218880858
1420.114062500  0.218601109
1420.119531250  0.219121412
1420.125000000  0.219436332
1420.130468750  0.221555447
1420.135937500  0.220400964
1420.141406250  0.221848904
1420.146875000  0.222143833
1420.152343750  0.222966480
1420.157812500  0.221968897
1420.163281250  0.222433973
1420.168750000  0.222553623
1420.174218750  0.223392050
1420.179687500  0.222524453
1420.185156250  0.223492542
1420.190625000  0.223866200
1420.196093750  0.224032922
1420.201562500  0.224605378
1420.207031250  0.223981944
1420.212500000  0.223920635
1420.217968750  0.225429884
1420.223437500  0.224851983
1420.228906250  0.224618461
1420.234375000  0.223932483
1420.239843750  0.224824039
1420.245312500  0.225632857
1420.250781250  0.224960229
1420.256250000  0.226236244
1420.261718750  0.224732028
1420.267187500  0.224548008
1420.272656250  0.225098269
1420.278125000  0.224408200
1420.283593750  0.225150679
1420.289062500  0.224335021
1420.294531250  0.225325830
1420.300000000  0.224531661
1420.305468750  0.224703834
1420.310937500  0.223973004
1420.316406250  0.224868667
1420.321875000  0.224516873
1420.327343750  0.223006485
1420.332812500  0.224423245
1420.338281250  0.223616963
1420.343750000  0.223183949
1420.349218750  0.222973653
1420.354687500  0.222942996
1420.360156250  0.222573459
1420.365625000  0.222827922
1420.371093750  0.222752394
1420.376562500  0.222232675
1420.382031250  0.223350973
1420.387500000  0.222353590
1420.392968750  0.222143652
1420.398437500  0.221393317
1420.403906250  0.222237052
1420.409375000  0.221983606
1420.414843750  0.222814008
1420.420312500  0.222099124
1420.425781250  0.221675986
1420.431250000  0.222466760
1420.436718750  0.222389979
1420.442187500  0.222686592
1420.447656250  0.222159691
1420.453125000  0.222043654
1420.458593750  0.221897896
1420.464062500  0.221536266
1420.469531250  0.222313432
1420.475000000  0.222347297
1420.480468750  0.222822021
1420.485937500  0.223477434
1420.491406250  0.223807435
1420.496875000  0.223744871
1420.502343750  0.223601359
1420.507812500  0.224615385
1420.513281250  0.225740882
1420.518750000  0.225248531
1420.524218750  0.226047863
1420.529687500  0.226519214
1420.535156250  0.227766250
1420.540625000  0.227826151
1420.546093750  0.229054249
1420.551562500  0.228334274
1420.557031250  0.228954063
1420.562500000  0.228514618
1420.567968750  0.227830766
1420.573437500  0.227053450
1420.578906250  0.230136416
1420.584375000  0.227537582
1420.589843750  0.229534358
1420.595312500  0.228642077
1420.600781250  0.228595008
1420.606250000  0.228237914
1420.611718750  0.228731386
1420.617187500  0.228332996
1420.622656250  0.228630493
1420.628125000  0.228857474
1420.633593750  0.227405564
1420.639062500  0.228042541
1420.644531250  0.229301566
1420.650000000  0.227827904
1420.655468750  0.227460293
1420.660937500  0.229122575
1420.666406250  0.228471153
1420.671875000  0.229062639
1420.677343750  0.228871150
1420.682812500  0.228912294
1420.688281250  0.228752447
1420.693750000  0.229372242
1420.699218750  0.229079495
1420.704687500  0.228622903
1420.710156250  0.230820744
1420.715625000  0.230235461
1420.721093750  0.230120106
1420.726562500  0.230865723
1420.732031250  0.230388082
1420.737500000  0.230468676
1420.742968750  0.231941659
1420.748437500  0.231796894
1420.753906250  0.232057843
1420.759375000  0.233507189
1420.764843750  0.232941722
1420.770312500  0.234498285
1420.775781250  0.234501153
1420.781250000  0.232717532
1420.786718750  0.234000583
1420.792187500  0.235825430
1420.797656250  0.236359617
1420.803125000  0.234500595
1420.808593750  0.235485763
1420.814062500  0.236336248
1420.819531250  0.236291677
1420.825000000  0.236664550
1420.830468750  0.237303467
1420.835937500  0.238253959
1420.841406250  0.238460409
1420.846875000  0.236981361
1420.852343750  0.238142420
1420.857812500  0.237826069
1420.863281250  0.238060614
1420.868750000  0.238510380
1420.874218750  0.238075508
1420.879687500  0.238107479
1420.885156250  0.238921426
1420.890625000  0.239840176
1420.896093750  0.238546671
1420.901562500  0.239603926
1420.907031250  0.240478618
1420.912500000  0.239952440
1420.917968750  0.239430654
1420.923437500  0.239352925
1420.928906250  0.239674311
1420.934375000  0.240158077
1420.939843750  0.241090392
1420.945312500  0.239361860
1420.950781250  0.241505939
1420.956250000  0.240546561
1420.961718750  0.241107270
1420.967187500  0.240069838
1420.972656250  0.239821685
1420.978125000  0.239867226
1420.983593750  0.240350467
1420.989062500  0.240929024
1420.994531250  0.239959371
1421.000000000  0.238472757
1421.005468750  0.241835879
1421.010937500  0.240831616
1421.016406250  0.241216224
1421.021875000  0.239318880
1421.027343750  0.239789524
1421.032812500  0.240064341
1421.038281250  0.239476672
1421.043750000  0.239765525
1421.049218750  0.239469222
1421.054687500  0.239075426
1421.060156250  0.238884559
1421.065625000  0.237877489
1421.071093750  0.238338151
1421.076562500  0.237926175
1421.082031250  0.237173314
1421.087500000  0.238157072
1421.092968750  0.238164696
1421.098437500  0.236922000
1421.103906250  0.237541619
1421.109375000  0.236917716
1421.114843750  0.237224985
1421.120312500  0.237672051
1421.125781250  0.236118192
1421.131250000  0.235682461
1421.136718750  0.235703676
1421.142187500  0.235591982
1421.147656250  0.235645220
1421.153125000  0.235298795
1421.158593750  0.234174821
1421.164062500  0.234122554
1421.169531250  0.235665777
1421.175000000  0.233344601
1421.180468750  0.233412716
1421.185937500  0.233530356
1421.191406250  0.232274269
1421.196875000  0.232380208
1421.202343750  0.233619777
1421.207812500  0.231915598
1421.213281250  0.230936774
1421.218750000  0.231974349
1421.224218750  0.230723937
1421.229687500  0.230753726
1421.235156250  0.229052574
1421.240625000  0.230453421
1421.246093750  0.228506012
1421.251562500  0.229403724
1421.257031250  0.228761345
1421.262500000  0.228010976
1421.267968750  0.229424106
1421.273437500  0.228527918
1421.278906250  0.227878336
1421.284375000  0.227494027
1421.289843750  0.227360566
1421.295312500  0.226759012
1421.300781250  0.227010551
1421.306250000  0.226044886
1421.311718750  0.226344434
1421.317187500  0.225162120
1421.322656250  0.224285260
1421.328125000  0.225071492
1421.333593750  0.224009141
1421.339062500  0.225907888
1421.344531250  0.224138112
1421.350000000  0.222958833
1421.355468750  0.223385483
1421.360937500  0.224497005
1421.366406250  0.222801528
1421.371875000  0.222976144
1421.377343750  0.222656275
1421.382812500  0.221787784
1421.388281250  0.221936748
1421.393750000  0.221445310
1421.399218750  0.221778303
1421.404687500  0.221208908
1421.410156250  0.221330867
1421.415625000  0.221339589
1421.421093750  0.221784037
1421.426562500  0.219765912
1421.432031250  0.219629755
1421.437500000  0.220509148
1421.442968750  0.219923481
1421.448437500  0.221321397
1421.453906250  0.220801633
1421.459375000  0.219941633
1421.464843750  0.219674011
1421.470312500  0.219468028
1421.475781250  0.220382919
1421.481250000  0.220089982
1421.486718750  0.219985948
1421.492187500  0.219316665
1421.497656250  0.219682330
1421.503125000  0.219756669
1421.508593750  0.218973569
1421.514062500  0.219400662
1421.519531250  0.220392147
1421.525000000  0.219872949
1421.530468750  0.219546151
1421.535937500  0.219446550
1421.541406250  0.220224247
1421.546875000  0.219006673
1421.552343750  0.220184646
1421.557812500  0.219099438
1421.563281250  0.219295982
1421.568750000  0.218861616
1421.574218750  0.219360031
1421.579687500  0.219754514
1421.585156250  0.220103709
1421.590625000  0.218949289
1421.596093750  0.219538855
1421.601562500  0.220255113
1421.607031250  0.219373757
1421.612500000  0.219795030
1421.617968750  0.220413911
1421.623437500  0.219476580
1421.628906250  0.219673922
1421.634375000  0.221266959
1421.639843750  0.221047121
1421.645312500  0.221099503
1421.650781250  0.221210846
1421.656250000  0.220557775
1421.661718750  0.220425451
1421.667187500  0.220566917
1421.672656250  0.220945537
1421.678125000  0.221122395
1421.683593750  0.222009068
1421.689062500  0.221051438
1421.694531250  0.221299313
1421.700000000  0.222739392
1421.705468750  0.221997912
1421.710937500  0.221244744
1421.716406250  0.222131366
1421.721875000  0.221548547
1421.727343750  0.221953764
1421.732812500  0.221419690
1421.738281250  0.221354572
1421.743750000  0.222258069
1421.749218750  0.220849720
1421.754687500  0.221784719
1421.760156250  0.221593098
1421.765625000  0.222285730
1421.771093750  0.221679541
1421.776562500  0.221828166
1421.782031250  0.221246484
1421.787500000  0.220644048
1421.792968750  0.220495153
1421.798437500  0.220832639
1421.803906250  0.221120747
1421.809375000  0.220049547
1421.814843750  0.220483574
1421.820312500  0.221220048
1421.825781250  0.219365897
1421.831250000  0.219688461
1421.836718750  0.219569340
1421.842187500  0.218813117
1421.847656250  0.218854355
1421.853125000  0.218664559
1421.858593750  0.218320169
1421.864062500  0.218694033
1421.869531250  0.215811879
1421.875000000  0.216613938
1421.880468750  0.217061276
1421.885937500  0.215549537
1421.891406250  0.213809161
1421.896875000  0.213529305
1421.902343750  0.213007661
1421.907812500  0.213135431
1421.913281250  0.212035457
1421.918750000  0.211090910
1421.924218750  0.210311540
1421.929687500  0.210153240
1421.935156250  0.209413494
1421.940625000  0.208334103
1421.946093750  0.206125100
1421.951562500  0.205858104
1421.957031250  0.206412682
1421.962500000  0.203980178
1421.967968750  0.203059439
1421.973437500  0.202577817
1421.978906250  0.200646363
1421.984375000  0.200724321
1421.989843750  0.200005892
1421.995312500  0.198243508
1422.000781250  0.196542262
1422.006250000  0.195882137
1422.011718750  0.193544329
1422.017187500  0.193701626
1422.022656250  0.192691001
1422.028125000  0.189991873
1422.033593750  0.188908361
1422.039062500  0.187729006
1422.044531250  0.186759509
1422.050000000  0.185443182
1422.055468750  0.183416120
1422.060937500  0.182416115
1422.066406250  0.180418442
1422.071875000  0.178981301
1422.077343750  0.177367189
1422.082812500  0.176518071
1422.088281250  0.173589014
1422.093750000  0.172222232
1422.099218750  0.171033776
1422.104687500  0.169105948
1422.110156250  0.166625108
1422.115625000  0.164775193
1422.121093750  0.163440374
1422.126562500  0.162670583
1422.132031250  0.159804669
1422.137500000  0.158350388
1422.142968750  0.156607143
1422.148437500  0.154557795
1422.153906250  0.152840095
1422.159375000  0.150888077
1422.164843750  0.149587981
1422.170312500  0.147587776
1422.175781250  0.144996405
1422.181250000  0.142799178
1422.186718750  0.141219453
1422.192187500  0.139935150
1422.197656250  0.136992060
1422.203125000  0.135490292
1422.208593750  0.133481560
1422.214062500  0.131675111
1422.219531250  0.130149010
1422.225000000  0.128102716
1422.230468750  0.126071458
1422.235937500  0.123855378
1422.241406250  0.121711431
1422.246875000  0.120312885
1422.252343750  0.118632141
1422.257812500  0.117186958
1422.263281250  0.115086558
1422.268750000  0.114030240
1422.274218750  0.111832234
1422.279687500  0.110388954
1422.285156250  0.107813090
1422.290625000  0.106444602
1422.296093750  0.105468721
1422.301562500  0.103747712
1422.307031250  0.102165168
1422.312500000  0.100995507
1422.317968750  0.099671031
1422.323437500  0.098443683
1422.328906250  0.097358340
1422.334375000  0.096442268
1422.339843750  0.094819246
1422.345312500  0.094003829
1422.350781250  0.093308273
1422.356250000  0.092800927
1422.361718750  0.091568883
1422.367187500  0.091225079
1422.372656250  0.090967291
1422.378125000  0.090400193
1422.383593750  0.089893292
1422.389062500  0.089534278
1422.394531250  0.090019207

